 Be Density=1.848 Thickness=125. microns
 Photon Energy (eV), Transmission
    10.000      0.00000    
    49.980      0.00000    
    89.960      0.00000    
    129.94      0.00000    
    169.92      0.00000    
    209.90      0.00000    
    249.88      0.00000    
    289.86      0.00000    
    329.84      0.00000    
    369.82      0.00000    
    409.80      0.00000    
    449.78      0.00000    
    489.76      0.00000    
    529.74      0.45370E-38
    569.72      0.59133E-31
    609.70      0.20209E-25
    649.68      0.45858E-21
    689.66      0.12088E-17
    729.64      0.54780E-15
    769.62      0.91961E-13
    809.60      0.59555E-11
    849.58      0.18393E-09
    889.56      0.31585E-08
    929.54      0.33816E-07
    969.52      0.25566E-06
    1009.5      0.14303E-05
    1049.5      0.62240E-05
    1089.5      0.22024E-04
    1129.4      0.65614E-04
    1169.4      0.16938E-03
    1209.4      0.38745E-03
    1249.4      0.80037E-03
    1289.4      0.15159E-02
    1329.3      0.26658E-02
    1369.3      0.43993E-02
    1409.3      0.68737E-02
    1449.3      0.10239E-01
    1489.3      0.14633E-01
    1529.2      0.20208E-01
    1569.2      0.27138E-01
    1609.2      0.35408E-01
    1649.2      0.45035E-01
    1689.2      0.56009E-01
    1729.1      0.68281E-01
    1769.1      0.81783E-01
    1809.1      0.96421E-01
    1849.1      0.11209    
    1889.1      0.12867    
    1929.0      0.14604    
    1969.0      0.16407    
    2009.0      0.18264    
    2049.0      0.20188    
    2089.0      0.22159    
    2128.9      0.24153    
    2168.9      0.26158    
    2208.9      0.28164    
    2248.9      0.30165    
    2288.9      0.32152    
    2328.8      0.34118    
    2368.8      0.36059    
    2408.8      0.37969    
    2448.8      0.39845    
    2488.8      0.41682    
    2528.7      0.43479    
    2568.7      0.45233    
    2608.7      0.46942    
    2648.7      0.48606    
    2688.7      0.50223    
    2728.6      0.51794    
    2768.6      0.53318    
    2808.6      0.54795    
    2848.6      0.56225    
    2888.6      0.57610    
    2928.5      0.58949    
    2968.5      0.60243    
    3008.5      0.61494    
    3048.5      0.62717    
    3088.5      0.63905    
    3128.4      0.65052    
    3168.4      0.66159    
    3208.4      0.67226    
    3248.4      0.68255    
    3288.4      0.69247    
    3328.3      0.70203    
    3368.3      0.71125    
    3408.3      0.72014    
    3448.3      0.72871    
    3488.3      0.73696    
    3528.2      0.74492    
    3568.2      0.75259    
    3608.2      0.75999    
    3648.2      0.76712    
    3688.2      0.77399    
    3728.1      0.78061    
    3768.1      0.78700    
    3808.1      0.79316    
    3848.1      0.79911    
    3888.1      0.80484    
    3928.0      0.81037    
    3968.0      0.81570    
    4008.0      0.82085    
    4048.0      0.82582    
    4088.0      0.83062    
    4127.9      0.83529    
    4167.9      0.83981    
    4207.9      0.84418    
    4247.9      0.84840    
    4287.9      0.85247    
    4327.8      0.85641    
    4367.8      0.86021    
    4407.8      0.86388    
    4447.8      0.86743    
    4487.8      0.87087    
    4527.7      0.87419    
    4567.7      0.87740    
    4607.7      0.88051    
    4647.7      0.88351    
    4687.7      0.88642    
    4727.6      0.88923    
    4767.6      0.89196    
    4807.6      0.89459    
    4847.6      0.89715    
    4887.6      0.89962    
    4927.5      0.90202    
    4967.5      0.90434    
    5007.5      0.90659    
    5047.5      0.90877    
    5087.5      0.91089    
    5127.4      0.91294    
    5167.4      0.91492    
    5207.4      0.91685    
    5247.4      0.91874    
    5287.4      0.92057    
    5327.3      0.92235    
    5367.3      0.92407    
    5407.3      0.92574    
    5447.3      0.92737    
    5487.3      0.92895    
    5527.2      0.93048    
    5567.2      0.93197    
    5607.2      0.93341    
    5647.2      0.93482    
    5687.2      0.93619    
    5727.1      0.93751    
    5767.1      0.93880    
    5807.1      0.94006    
    5847.1      0.94128    
    5887.1      0.94246    
    5927.0      0.94362    
    5967.0      0.94474    
    6007.0      0.94583    
    6047.0      0.94690    
    6087.0      0.94793    
    6126.9      0.94894    
    6166.9      0.94992    
    6206.9      0.95088    
    6246.9      0.95181    
    6286.9      0.95271    
    6326.8      0.95360    
    6366.8      0.95446    
    6406.8      0.95531    
    6446.8      0.95613    
    6486.8      0.95693    
    6526.7      0.95771    
    6566.7      0.95848    
    6606.7      0.95922    
    6646.7      0.95994    
    6686.7      0.96065    
    6726.6      0.96134    
    6766.6      0.96201    
    6806.6      0.96267    
    6846.6      0.96331    
    6886.6      0.96393    
    6926.5      0.96454    
    6966.5      0.96514    
    7006.5      0.96572    
    7046.5      0.96629    
    7086.5      0.96684    
    7126.4      0.96738    
    7166.4      0.96791    
    7206.4      0.96843    
    7246.4      0.96893    
    7286.4      0.96942    
    7326.3      0.96991    
    7366.3      0.97038    
    7406.3      0.97084    
    7446.3      0.97129    
    7486.3      0.97173    
    7526.2      0.97216    
    7566.2      0.97258    
    7606.2      0.97299    
    7646.2      0.97339    
    7686.2      0.97378    
    7726.1      0.97417    
    7766.1      0.97454    
    7806.1      0.97491    
    7846.1      0.97527    
    7886.1      0.97562    
    7926.0      0.97597    
    7966.0      0.97631    
    8006.0      0.97664    
    8046.0      0.97696    
    8086.0      0.97728    
    8125.9      0.97759    
    8165.9      0.97790    
    8205.9      0.97819    
    8245.9      0.97849    
    8285.9      0.97877    
    8325.8      0.97905    
    8365.8      0.97933    
    8405.8      0.97960    
    8445.8      0.97987    
    8485.8      0.98013    
    8525.7      0.98038    
    8565.7      0.98063    
    8605.7      0.98088    
    8645.7      0.98112    
    8685.7      0.98135    
    8725.6      0.98158    
    8765.6      0.98181    
    8805.6      0.98203    
    8845.6      0.98225    
    8885.6      0.98246    
    8925.5      0.98267    
    8965.5      0.98288    
    9005.5      0.98308    
    9045.5      0.98328    
    9085.5      0.98347    
    9125.4      0.98366    
    9165.4      0.98385    
    9205.4      0.98403    
    9245.4      0.98421    
    9285.4      0.98439    
    9325.3      0.98456    
    9365.3      0.98473    
    9405.3      0.98490    
    9445.3      0.98506    
    9485.3      0.98522    
    9525.2      0.98538    
    9565.2      0.98554    
    9605.2      0.98569    
    9645.2      0.98584    
    9685.2      0.98599    
    9725.1      0.98613    
    9765.1      0.98627    
    9805.1      0.98641    
    9845.1      0.98655    
    9885.1      0.98668    
    9925.0      0.98681    
    9965.0      0.98694    
    10005.      0.98707    
    10045.      0.98720    
    10085.      0.98732    
    10125.      0.98744    
    10165.      0.98756    
    10205.      0.98768    
    10245.      0.98780    
    10285.      0.98791    
    10325.      0.98802    
    10365.      0.98813    
    10405.      0.98824    
    10445.      0.98835    
    10485.      0.98845    
    10525.      0.98856    
    10565.      0.98866    
    10605.      0.98876    
    10645.      0.98886    
    10685.      0.98895    
    10725.      0.98905    
    10765.      0.98914    
    10805.      0.98923    
    10845.      0.98932    
    10885.      0.98941    
    10925.      0.98950    
    10965.      0.98959    
    11004.      0.98967    
    11044.      0.98976    
    11084.      0.98984    
    11124.      0.98992    
    11164.      0.99000    
    11204.      0.99008    
    11244.      0.99015    
    11284.      0.99023    
    11324.      0.99030    
    11364.      0.99038    
    11404.      0.99045    
    11444.      0.99052    
    11484.      0.99059    
    11524.      0.99066    
    11564.      0.99073    
    11604.      0.99080    
    11644.      0.99086    
    11684.      0.99093    
    11724.      0.99099    
    11764.      0.99106    
    11804.      0.99112    
    11844.      0.99118    
    11884.      0.99124    
    11924.      0.99130    
    11964.      0.99136    
    12004.      0.99142    
    12044.      0.99147    
    12084.      0.99153    
    12124.      0.99158    
    12164.      0.99164    
    12204.      0.99169    
    12244.      0.99174    
    12284.      0.99180    
    12324.      0.99185    
    12364.      0.99190    
    12404.      0.99195    
    12444.      0.99200    
    12484.      0.99205    
    12524.      0.99210    
    12564.      0.99214    
    12604.      0.99219    
    12644.      0.99224    
    12684.      0.99228    
    12724.      0.99233    
    12764.      0.99237    
    12804.      0.99241    
    12844.      0.99246    
    12884.      0.99250    
    12924.      0.99254    
    12964.      0.99258    
    13004.      0.99262    
    13043.      0.99266    
    13083.      0.99270    
    13123.      0.99274    
    13163.      0.99278    
    13203.      0.99282    
    13243.      0.99286    
    13283.      0.99289    
    13323.      0.99293    
    13363.      0.99297    
    13403.      0.99300    
    13443.      0.99304    
    13483.      0.99307    
    13523.      0.99311    
    13563.      0.99314    
    13603.      0.99317    
    13643.      0.99321    
    13683.      0.99324    
    13723.      0.99327    
    13763.      0.99330    
    13803.      0.99333    
    13843.      0.99336    
    13883.      0.99339    
    13923.      0.99342    
    13963.      0.99345    
    14003.      0.99348    
    14043.      0.99351    
    14083.      0.99354    
    14123.      0.99357    
    14163.      0.99359    
    14203.      0.99362    
    14243.      0.99365    
    14283.      0.99367    
    14323.      0.99370    
    14363.      0.99373    
    14403.      0.99375    
    14443.      0.99378    
    14483.      0.99380    
    14523.      0.99383    
    14563.      0.99385    
    14603.      0.99387    
    14643.      0.99390    
    14683.      0.99392    
    14723.      0.99394    
    14763.      0.99397    
    14803.      0.99399    
    14843.      0.99401    
    14883.      0.99403    
    14923.      0.99405    
    14963.      0.99408    
    15002.      0.99410    
    15042.      0.99412    
    15082.      0.99414    
    15122.      0.99416    
    15162.      0.99418    
    15202.      0.99420    
    15242.      0.99422    
    15282.      0.99424    
    15322.      0.99426    
    15362.      0.99428    
    15402.      0.99430    
    15442.      0.99432    
    15482.      0.99434    
    15522.      0.99436    
    15562.      0.99438    
    15602.      0.99440    
    15642.      0.99442    
    15682.      0.99443    
    15722.      0.99445    
    15762.      0.99447    
    15802.      0.99449    
    15842.      0.99450    
    15882.      0.99452    
    15922.      0.99454    
    15962.      0.99456    
    16002.      0.99457    
    16042.      0.99459    
    16082.      0.99460    
    16122.      0.99462    
    16162.      0.99464    
    16202.      0.99465    
    16242.      0.99467    
    16282.      0.99468    
    16322.      0.99470    
    16362.      0.99471    
    16402.      0.99473    
    16442.      0.99474    
    16482.      0.99476    
    16522.      0.99477    
    16562.      0.99478    
    16602.      0.99480    
    16642.      0.99481    
    16682.      0.99483    
    16722.      0.99484    
    16762.      0.99485    
    16802.      0.99487    
    16842.      0.99488    
    16882.      0.99489    
    16922.      0.99490    
    16962.      0.99492    
    17002.      0.99493    
    17041.      0.99494    
    17081.      0.99495    
    17121.      0.99497    
    17161.      0.99498    
    17201.      0.99499    
    17241.      0.99500    
    17281.      0.99501    
    17321.      0.99503    
    17361.      0.99504    
    17401.      0.99505    
    17441.      0.99506    
    17481.      0.99507    
    17521.      0.99508    
    17561.      0.99509    
    17601.      0.99510    
    17641.      0.99511    
    17681.      0.99512    
    17721.      0.99513    
    17761.      0.99514    
    17801.      0.99515    
    17841.      0.99516    
    17881.      0.99517    
    17921.      0.99518    
    17961.      0.99519    
    18001.      0.99520    
    18041.      0.99521    
    18081.      0.99522    
    18121.      0.99523    
    18161.      0.99524    
    18201.      0.99525    
    18241.      0.99526    
    18281.      0.99527    
    18321.      0.99528    
    18361.      0.99529    
    18401.      0.99529    
    18441.      0.99530    
    18481.      0.99531    
    18521.      0.99532    
    18561.      0.99533    
    18601.      0.99534    
    18641.      0.99534    
    18681.      0.99535    
    18721.      0.99536    
    18761.      0.99537    
    18801.      0.99538    
    18841.      0.99538    
    18881.      0.99539    
    18921.      0.99540    
    18961.      0.99541    
    19001.      0.99541    
    19040.      0.99542    
    19080.      0.99543    
    19120.      0.99543    
    19160.      0.99544    
    19200.      0.99545    
    19240.      0.99546    
    19280.      0.99546    
    19320.      0.99547    
    19360.      0.99548    
    19400.      0.99548    
    19440.      0.99549    
    19480.      0.99550    
    19520.      0.99550    
    19560.      0.99551    
    19600.      0.99552    
    19640.      0.99552    
    19680.      0.99553    
    19720.      0.99553    
    19760.      0.99554    
    19800.      0.99555    
    19840.      0.99555    
    19880.      0.99556    
    19920.      0.99556    
    19960.      0.99557    
    20000.      0.99558    
