 Be Density=1.848 Thickness=140. microns
 Photon Energy (eV), Transmission
    10.000      0.00000    
    209.90      0.00000    
    409.80      0.00000    
    609.70      0.16681E-28
    809.60      0.26786E-12
    1009.5      0.28450E-06
    1209.4      0.15094E-03
    1409.3      0.37814E-02
    1609.2      0.23713E-01
    1809.1      0.72823E-01
    2009.0      0.14894    
    2208.9      0.24192    
    2408.8      0.33804    
    2608.7      0.42870    
    2808.6      0.50979    
    3008.5      0.58009    
    3208.4      0.64097    
    3408.3      0.69232    
    3608.2      0.73537    
    3808.1      0.77141    
    4008.0      0.80163    
    4207.9      0.82719    
    4407.8      0.84885    
    4607.7      0.86716    
    4807.6      0.88272    
    5007.5      0.89598    
    5207.4      0.90735    
    5407.3      0.91721    
    5607.2      0.92573    
    5807.1      0.93311    
    6007.0      0.93953    
    6206.9      0.94515    
    6406.8      0.95008    
    6606.7      0.95444    
    6806.6      0.95828    
    7006.5      0.96169    
    7206.4      0.96471    
    7406.3      0.96739    
    7606.2      0.96979    
    7806.1      0.97194    
    8006.0      0.97387    
    8205.9      0.97561    
    8405.8      0.97718    
    8605.7      0.97861    
    8805.6      0.97990    
    9005.5      0.98107    
    9205.4      0.98213    
    9405.3      0.98310    
    9605.2      0.98399    
    9805.1      0.98479    
    10005.      0.98553    
    10205.      0.98621    
    10405.      0.98684    
    10605.      0.98742    
    10805.      0.98795    
    11004.      0.98844    
    11204.      0.98889    
    11404.      0.98931    
    11604.      0.98970    
    11804.      0.99006    
    12004.      0.99039    
    12204.      0.99070    
    12404.      0.99099    
    12604.      0.99126    
    12804.      0.99151    
    13004.      0.99174    
    13203.      0.99196    
    13403.      0.99217    
    13603.      0.99236    
    13803.      0.99253    
    14003.      0.99270    
    14203.      0.99286    
    14403.      0.99300    
    14603.      0.99314    
    14803.      0.99327    
    15002.      0.99339    
    15202.      0.99351    
    15402.      0.99362    
    15602.      0.99373    
    15802.      0.99383    
    16002.      0.99392    
    16202.      0.99401    
    16402.      0.99410    
    16602.      0.99418    
    16802.      0.99425    
    17002.      0.99432    
    17201.      0.99439    
    17401.      0.99446    
    17601.      0.99452    
    17801.      0.99457    
    18001.      0.99463    
    18201.      0.99468    
    18401.      0.99473    
    18601.      0.99478    
    18801.      0.99482    
    19001.      0.99486    
    19200.      0.99490    
    19400.      0.99494    
    19600.      0.99498    
    19800.      0.99501    
    20000.      0.99505    
