 Be Density=1.848 Thickness=10. microns
 Photon Energy (eV), Transmission
    10.000      0.00000    
    209.90      0.14639E-35
    409.80      0.49563E-06
    609.70      0.87992E-02
    809.60      0.12647    
    1009.5      0.34075    
    1209.4      0.53340    
    1409.3      0.67139    
    1609.2      0.76547    
    1809.1      0.82934    
    2009.0      0.87283    
    2208.9      0.90360    
    2408.8      0.92545    
    2608.7      0.94129    
    2808.6      0.95301    
    3008.5      0.96185    
    3208.4      0.96873    
    3408.3      0.97408    
    3608.2      0.97828    
    3808.1      0.98163    
    4008.0      0.98433    
    4207.9      0.98654    
    4407.8      0.98836    
    4607.7      0.98987    
    4807.6      0.99113    
    5007.5      0.99219    
    5207.4      0.99308    
    5407.3      0.99385    
    5607.2      0.99450    
    5807.1      0.99507    
    6007.0      0.99555    
    6206.9      0.99598    
    6406.8      0.99635    
    6606.7      0.99667    
    6806.6      0.99696    
    7006.5      0.99721    
    7206.4      0.99744    
    7406.3      0.99764    
    7606.2      0.99781    
    7806.1      0.99797    
    8006.0      0.99811    
    8205.9      0.99824    
    8405.8      0.99835    
    8605.7      0.99846    
    8805.6      0.99855    
    9005.5      0.99864    
    9205.4      0.99871    
    9405.3      0.99878    
    9605.2      0.99885    
    9805.1      0.99891    
    10005.      0.99896    
    10205.      0.99901    
    10405.      0.99905    
    10605.      0.99910    
    10805.      0.99913    
    11004.      0.99917    
    11204.      0.99920    
    11404.      0.99923    
    11604.      0.99926    
    11804.      0.99929    
    12004.      0.99931    
    12204.      0.99933    
    12404.      0.99935    
    12604.      0.99937    
    12804.      0.99939    
    13004.      0.99941    
    13203.      0.99942    
    13403.      0.99944    
    13603.      0.99945    
    13803.      0.99946    
    14003.      0.99948    
    14203.      0.99949    
    14403.      0.99950    
    14603.      0.99951    
    14803.      0.99952    
    15002.      0.99953    
    15202.      0.99954    
    15402.      0.99954    
    15602.      0.99955    
    15802.      0.99956    
    16002.      0.99956    
    16202.      0.99957    
    16402.      0.99958    
    16602.      0.99958    
    16802.      0.99959    
    17002.      0.99959    
    17201.      0.99960    
    17401.      0.99960    
    17601.      0.99961    
    17801.      0.99961    
    18001.      0.99962    
    18201.      0.99962    
    18401.      0.99962    
    18601.      0.99963    
    18801.      0.99963    
    19001.      0.99963    
    19200.      0.99964    
    19400.      0.99964    
    19600.      0.99964    
    19800.      0.99964    
    20000.      0.99965    
