 Be Density=1.848 Thickness=12. microns
 Photon Energy (eV), Transmission
    10.000      0.00000    
    209.90      0.99492E-43
    409.80      0.27176E-07
    609.70      0.34145E-02
    809.60      0.83636E-01
    1009.5      0.27474    
    1209.4      0.47040    
    1409.3      0.61997    
    1609.2      0.72563    
    1809.1      0.79888    
    2009.0      0.84940    
    2208.9      0.88546    
    2408.8      0.91122    
    2608.7      0.92997    
    2808.6      0.94388    
    3008.5      0.95440    
    3208.4      0.96259    
    3408.3      0.96897    
    3608.2      0.97400    
    3808.1      0.97800    
    4008.0      0.98123    
    4207.9      0.98387    
    4407.8      0.98605    
    4607.7      0.98786    
    4807.6      0.98936    
    5007.5      0.99063    
    5207.4      0.99170    
    5407.3      0.99262    
    5607.2      0.99341    
    5807.1      0.99408    
    6007.0      0.99467    
    6206.9      0.99518    
    6406.8      0.99562    
    6606.7      0.99601    
    6806.6      0.99635    
    7006.5      0.99666    
    7206.4      0.99692    
    7406.3      0.99716    
    7606.2      0.99737    
    7806.1      0.99756    
    8006.0      0.99773    
    8205.9      0.99789    
    8405.8      0.99802    
    8605.7      0.99815    
    8805.6      0.99826    
    9005.5      0.99836    
    9205.4      0.99846    
    9405.3      0.99854    
    9605.2      0.99862    
    9805.1      0.99869    
    10005.      0.99875    
    10205.      0.99881    
    10405.      0.99887    
    10605.      0.99892    
    10805.      0.99896    
    11004.      0.99900    
    11204.      0.99904    
    11404.      0.99908    
    11604.      0.99911    
    11804.      0.99914    
    12004.      0.99917    
    12204.      0.99920    
    12404.      0.99922    
    12604.      0.99925    
    12804.      0.99927    
    13004.      0.99929    
    13203.      0.99931    
    13403.      0.99933    
    13603.      0.99934    
    13803.      0.99936    
    14003.      0.99937    
    14203.      0.99939    
    14403.      0.99940    
    14603.      0.99941    
    14803.      0.99942    
    15002.      0.99943    
    15202.      0.99944    
    15402.      0.99945    
    15602.      0.99946    
    15802.      0.99947    
    16002.      0.99948    
    16202.      0.99949    
    16402.      0.99949    
    16602.      0.99950    
    16802.      0.99951    
    17002.      0.99951    
    17201.      0.99952    
    17401.      0.99952    
    17601.      0.99953    
    17801.      0.99953    
    18001.      0.99954    
    18201.      0.99954    
    18401.      0.99955    
    18601.      0.99955    
    18801.      0.99956    
    19001.      0.99956    
    19200.      0.99956    
    19400.      0.99957    
    19600.      0.99957    
    19800.      0.99957    
    20000.      0.99957    
