 Be Density=1.848 Thickness=50. microns
 Photon Energy (eV), Transmission
    10.000      0.00000    
    209.90      0.00000    
    409.80      0.29908E-31
    609.70      0.52750E-10
    809.60      0.32357E-04
    1009.5      0.45938E-02
    1209.4      0.43180E-01
    1409.3      0.13642    
    1609.2      0.26281    
    1809.1      0.39235    
    2009.0      0.50657    
    2208.9      0.60239    
    2408.8      0.67885    
    2608.7      0.73897    
    2808.6      0.78613    
    3008.5      0.82325    
    3208.4      0.85313    
    3408.3      0.87693    
    3608.2      0.89603    
    3808.1      0.91148    
    4008.0      0.92407    
    4207.9      0.93449    
    4407.8      0.94315    
    4607.7      0.95037    
    4807.6      0.95642    
    5007.5      0.96153    
    5207.4      0.96587    
    5407.3      0.96961    
    5607.2      0.97281    
    5807.1      0.97558    
    6007.0      0.97797    
    6206.9      0.98005    
    6406.8      0.98188    
    6606.7      0.98348    
    6806.6      0.98490    
    7006.5      0.98614    
    7206.4      0.98725    
    7406.3      0.98823    
    7606.2      0.98911    
    7806.1      0.98989    
    8006.0      0.99059    
    8205.9      0.99122    
    8405.8      0.99179    
    8605.7      0.99231    
    8805.6      0.99277    
    9005.5      0.99320    
    9205.4      0.99358    
    9405.3      0.99393    
    9605.2      0.99425    
    9805.1      0.99454    
    10005.      0.99481    
    10205.      0.99505    
    10405.      0.99528    
    10605.      0.99549    
    10805.      0.99568    
    11004.      0.99586    
    11204.      0.99602    
    11404.      0.99617    
    11604.      0.99631    
    11804.      0.99644    
    12004.      0.99656    
    12204.      0.99667    
    12404.      0.99677    
    12604.      0.99687    
    12804.      0.99696    
    13004.      0.99704    
    13203.      0.99712    
    13403.      0.99719    
    13603.      0.99726    
    13803.      0.99733    
    14003.      0.99739    
    14203.      0.99744    
    14403.      0.99750    
    14603.      0.99754    
    14803.      0.99759    
    15002.      0.99763    
    15202.      0.99768    
    15402.      0.99772    
    15602.      0.99776    
    15802.      0.99779    
    16002.      0.99783    
    16202.      0.99786    
    16402.      0.99789    
    16602.      0.99792    
    16802.      0.99794    
    17002.      0.99797    
    17201.      0.99799    
    17401.      0.99802    
    17601.      0.99804    
    17801.      0.99806    
    18001.      0.99808    
    18201.      0.99810    
    18401.      0.99811    
    18601.      0.99813    
    18801.      0.99815    
    19001.      0.99816    
    19200.      0.99818    
    19400.      0.99819    
    19600.      0.99820    
    19800.      0.99822    
    20000.      0.99823    
